time,potential
0.000000000000000000e+00,1.976484478358728580e+01
1.005025125628140753e-01,1.998844193020117643e+01
2.010050251256281506e-01,2.022840567590993643e+01
3.015075376884422398e-01,2.048328914306919302e+01
4.020100502512563012e-01,2.075088621711680759e+01
5.025125628140704181e-01,2.102808153828922144e+01
6.030150753768844796e-01,2.131071314091450830e+01
7.035175879396985410e-01,2.159347327487036949e+01
8.040201005025126024e-01,2.186989085603714145e+01
9.045226130653266639e-01,2.213244702633398120e+01
1.005025125628140836e+00,2.237286869505541631e+01
1.105527638190954898e+00,2.258263200165021090e+01
1.206030150753768959e+00,2.275366107367528556e+01
1.306532663316583021e+00,2.287914899359024190e+01
1.407035175879397082e+00,2.295436655837395534e+01
1.507537688442211143e+00,2.297729196188659984e+01
1.608040201005025205e+00,2.294891026778785204e+01
1.708542713567839266e+00,2.287310756804289369e+01
1.809045226130653328e+00,2.275618748965569793e+01
1.909547738693467389e+00,2.260613193279735356e+01
2.010050251256281673e+00,2.243177285795503195e+01
2.110552763819095734e+00,2.224203190651264705e+01
2.211055276381909795e+00,2.204533045349507248e+01
2.311557788944723857e+00,2.184921067504590297e+01
2.412060301507537918e+00,2.166015424982648696e+01
2.512562814070351980e+00,2.148355568845305896e+01
2.613065326633166041e+00,2.132379775795904919e+01
2.713567839195980103e+00,2.118438178333742528e+01
2.814070351758794164e+00,2.106807690853147363e+01
2.914572864321608225e+00,2.097706341658825835e+01
3.015075376884422287e+00,2.091305792599295543e+01
3.115577889447236348e+00,2.087741276198957152e+01
3.216080402010050410e+00,2.087118772378996567e+01
3.316582914572864471e+00,2.089519357370262753e+01
3.417085427135678533e+00,2.095000738567487275e+01
3.517587939698492594e+00,2.103595854752673233e+01
3.618090452261306655e+00,2.115308352589863361e+01
3.718592964824120717e+00,2.130104535565587298e+01
3.819095477386934778e+00,2.147901306933482601e+01
3.919597989949748840e+00,2.168549593657566987e+01
4.020100502512563345e+00,2.191812986666208474e+01
4.120603015075377407e+00,2.217341919238734604e+01
4.221105527638191468e+00,2.244645114195580859e+01
4.321608040201005529e+00,2.273061727178101421e+01
4.422110552763819591e+00,2.301740907247961232e+01
4.522613065326633652e+00,2.329638325749700201e+01
4.623115577889447714e+00,2.355541685010398822e+01
4.723618090452261775e+00,2.378136203518203473e+01
4.824120603015075837e+00,2.396114851863805129e+01
4.924623115577889898e+00,2.408324901537345752e+01
5.025125628140703959e+00,2.413926021670809163e+01
5.125628140703518021e+00,2.412522019874072043e+01
5.226130653266332082e+00,2.404228207070944023e+01
5.326633165829146144e+00,2.389652976905468407e+01
5.427135678391960205e+00,2.369799310204965082e+01
5.527638190954774267e+00,2.345916294415810199e+01
5.628140703517588328e+00,2.319340963355111995e+01
5.728643216080402389e+00,2.291364471270291148e+01
5.829145728643216451e+00,2.263140872940206805e+01
5.929648241206030512e+00,2.235640611922085697e+01
6.030150753768844574e+00,2.209640293121369581e+01
6.130653266331658635e+00,2.185736295884428415e+01
6.231155778894472697e+00,2.164370685778511927e+01
6.331658291457286758e+00,2.145860759153811870e+01
6.432160804020100819e+00,2.130426964925155175e+01
6.532663316582914881e+00,2.118216471208068086e+01
6.633165829145728942e+00,2.109321427343140698e+01
6.733668341708543004e+00,2.103791909429578411e+01
6.834170854271357065e+00,2.101643945890170073e+01
6.934673366834171127e+00,2.102863090807650792e+01
7.035175879396985188e+00,2.107403869127128004e+01
7.135678391959799249e+00,2.115185294242250436e+01
7.236180904522613311e+00,2.126082478502990369e+01
7.336683417085427372e+00,2.139914340339253940e+01
7.437185929648241434e+00,2.156427561491999256e+01
7.537688442211055495e+00,2.175277445778946728e+01
7.638190954773869557e+00,2.196007198642405100e+01
7.738693467336683618e+00,2.218028561336730320e+01
7.839195979899497679e+00,2.240608557517672850e+01
7.939698492462311741e+00,2.262868987128999265e+01
8.040201005025126690e+00,2.283806457384342181e+01
8.140703517587940752e+00,2.302339862846346108e+01
8.241206030150754813e+00,2.317387990284355581e+01
8.341708542713568875e+00,2.327972257132736900e+01
8.442211055276382936e+00,2.333329279401785783e+01
8.542713567839196998e+00,2.333010106778883852e+01
8.643216080402011059e+00,2.326941246576191347e+01
8.743718592964825120e+00,2.315430840677883140e+01
8.844221105527639182e+00,2.299118446255397075e+01
8.944723618090453243e+00,2.278882722852325671e+01
9.045226130653267305e+00,2.255730896300748611e+01
9.145728643216081366e+00,2.230693901916261979e+01
9.246231155778895427e+00,2.204744100476406388e+01
9.346733668341709489e+00,2.178742318483485718e+01
9.447236180904523550e+00,2.153412829103915627e+01
9.547738693467337612e+00,2.129340009921003585e+01
9.648241206030151673e+00,2.106979085214416969e+01
9.748743718592965735e+00,2.086674170674821127e+01
9.849246231155779796e+00,2.068678598259886314e+01
9.949748743718593857e+00,2.053174402468525273e+01
1.005025125628140792e+01,2.040289271153347528e+01
1.015075376884422198e+01,2.030110330576956201e+01
1.025125628140703604e+01,2.022694721728704081e+01
1.035175879396985010e+01,2.018077224192446195e+01
1.045226130653266416e+01,2.016275270141042597e+01
1.055276381909547823e+01,2.017291679277644434e+01
1.065326633165829229e+01,2.021115332757057104e+01
1.075376884422110635e+01,2.027719916786743681e+01
1.085427135678392041e+01,2.037060725657988414e+01
1.095477386934673447e+01,2.049069430426670024e+01
1.105527638190954853e+01,2.063646637021358643e+01
1.115577889447236259e+01,2.080652072184843249e+01
1.125628140703517666e+01,2.099892335047522707e+01
1.135678391959799072e+01,2.121106444777143452e+01
1.145728643216080478e+01,2.143949933648686468e+01
1.155778894472361884e+01,2.167979073640238852e+01
1.165829145728643290e+01,2.192637964685863494e+01
1.175879396984924696e+01,2.217252543055463221e+01
1.185929648241206102e+01,2.241036715617177677e+01
1.195979899497487509e+01,2.263116148112258585e+01
1.206030150753768915e+01,2.282573914033351770e+01
1.216080402010050321e+01,2.298518181461308529e+01
1.226130653266331727e+01,2.310166639666545763e+01
1.236180904522613133e+01,2.316934556288768832e+01
1.246231155778894539e+01,2.318509090596735334e+01
1.256281407035175945e+01,2.314892094990458915e+01
1.266331658291457352e+01,2.306400369802055650e+01
1.276381909547738758e+01,2.293623171499238111e+01
1.286432160804020164e+01,2.277348048078650322e+01
1.296482412060301570e+01,2.258472599194448804e+01
1.306532663316582976e+01,2.237920026560358622e+01
1.316582914572864382e+01,2.216571421494187533e+01
1.326633165829145788e+01,2.195220566285699348e+01
1.336683417085427195e+01,2.174550847724114178e+01
1.346733668341708601e+01,2.155129997598816516e+01
1.356783919597990007e+01,2.137416920207739679e+01
1.366834170854271413e+01,2.121775254613992345e+01
1.376884422110552819e+01,2.108489492847655100e+01
1.386934673366834225e+01,2.097780850162574495e+01
1.396984924623115631e+01,2.089821265269733530e+01
1.407035175879397038e+01,2.084744757571896656e+01
1.417085427135678444e+01,2.082655892569894363e+01
1.427135678391959850e+01,2.083635319621636484e+01
1.437185929648241256e+01,2.087742453752078475e+01
1.447236180904522662e+01,2.095015284751147178e+01
1.457286432160804068e+01,2.105467170836600488e+01
1.467336683417085474e+01,2.119080296383458872e+01
1.477386934673366881e+01,2.135795319572302020e+01
1.487437185929648287e+01,2.155496643512113764e+01
1.497487437185929693e+01,2.177992828059179331e+01
1.507537688442211099e+01,2.202992057628087963e+01
1.517587939698492505e+01,2.230073506171805775e+01
1.527638190954773911e+01,2.258657119454449713e+01
1.537688442211055317e+01,2.287976911063407925e+01
1.547738693467336724e+01,2.317066159382740764e+01
1.557788944723618130e+01,2.344766052326528794e+01
1.567839195979899536e+01,2.369770549071874655e+01
1.577889447236180942e+01,2.390716650029664692e+01
1.587939698492462348e+01,2.406319536240714640e+01
1.597989949748743754e+01,2.415535216154773224e+01
1.608040201005025338e+01,2.417716797611680235e+01
1.618090452261306567e+01,2.412722234706399149e+01
1.628140703517588150e+01,2.400940151659276367e+01
1.638190954773869379e+01,2.383225249862732298e+01
1.648241206030150963e+01,2.360763570138380274e+01
1.658291457286432191e+01,2.334907421905269231e+01
1.668341708542713775e+01,2.307020727341999233e+01
1.678391959798995003e+01,2.278362449554925462e+01
1.688442211055276587e+01,2.250017676350804052e+01
1.698492462311557816e+01,2.222871620311854457e+01
1.708542713567839400e+01,2.197614533624331301e+01
1.718592964824120628e+01,2.174764544811878508e+01
1.728643216080402212e+01,2.154697788083502275e+01
1.738693467336683440e+01,2.137678831462692841e+01
1.748743718592965024e+01,2.123887437171305237e+01
1.758793969849246253e+01,2.113440068712696984e+01
1.768844221105527836e+01,2.106405762101680779e+01
1.778894472361809065e+01,2.102816690369030539e+01
1.788944723618090649e+01,2.102673907316091473e+01
1.798994974874371877e+01,2.105948693052495813e+01
1.809045226130653461e+01,2.112579751868508637e+01
1.819095477386934689e+01,2.122466314139948551e+01
1.829145728643216273e+01,2.135457075362990054e+01
1.839195979899497502e+01,2.151334950914691291e+01
1.849246231155779085e+01,2.169797942495712562e+01
1.859296482412060314e+01,2.190437135225104726e+01
1.869346733668341898e+01,2.212714104872618748e+01
1.879396984924623126e+01,2.235941853282685088e+01
1.889447236180904710e+01,2.259275589297915943e+01
1.899497487437185939e+01,2.281721577069304985e+01
1.909547738693467522e+01,2.302172862243630647e+01
1.919597989949748751e+01,2.319477598713261557e+01
1.929648241206030335e+01,2.332539362798701887e+01
1.939698492462311563e+01,2.340437690582911046e+01
1.949748743718593147e+01,2.342546270955750032e+01
1.959798994974874375e+01,2.338620494324078081e+01
1.969849246231155959e+01,2.328830190305133740e+01
1.979899497487437188e+01,2.313728404292280416e+01
1.989949748743718771e+01,2.294165521132173069e+01
2.000000000000000000e+01,2.271172654413117087e+01
