time,potential
0.000000000000000000e+00,5.390316221121009832e+00
1.002506265664160345e-01,5.486592405766904434e+00
2.005012531328320691e-01,5.597856740062285397e+00
3.007518796992481036e-01,5.725178597080791576e+00
4.010025062656641381e-01,5.869592149322580887e+00
5.012531328320801727e-01,6.032055904456413487e+00
6.015037593984962072e-01,6.213405568405173440e+00
7.017543859649122417e-01,6.414303233144950767e+00
8.020050125313282763e-01,6.635184317776196217e+00
9.022556390977443108e-01,6.876201977799516030e+00
1.002506265664160345e+00,7.137162769768284676e+00
1.102756892230576380e+00,7.417437699812790441e+00
1.203007518796992414e+00,7.715819047617777926e+00
1.303258145363408449e+00,8.030285099739534971e+00
1.403508771929824483e+00,8.357644381666538891e+00
1.503759398496240518e+00,8.693076031842137397e+00
1.604010025062656553e+00,9.029674860948270876e+00
1.704260651629072587e+00,9.358226027262835700e+00
1.804511278195488622e+00,9.667501147419574892e+00
1.904761904761904656e+00,9.945291738727483732e+00
2.005012531328320691e+00,1.018013416702170382e+01
2.105263157894736725e+00,1.036333201359353318e+01
2.205513784461152760e+00,1.049064357064860253e+01
2.305764411027568794e+00,1.056301493526487256e+01
2.406015037593984829e+00,1.058600088194667777e+01
2.506265664160400863e+00,1.056795153624332251e+01
2.606516290726816898e+00,1.051754324856221423e+01
2.706766917293232932e+00,1.044157843414081377e+01
2.807017543859648967e+00,1.034388304473450404e+01
2.907268170426065002e+00,1.022553314939071178e+01
3.007518796992481036e+00,1.008596915004538985e+01
3.107769423558897071e+00,9.924369206418699463e+00
3.208020050125313105e+00,9.740953070971361427e+00
3.308270676691729140e+00,9.538129616876560135e+00
3.408521303258145174e+00,9.321308319311523150e+00
3.508771929824561209e+00,9.099063386127340891e+00
3.609022556390977243e+00,8.882487790311778042e+00
3.709273182957393278e+00,8.683920100636330019e+00
3.809523809523809312e+00,8.515472478246078225e+00
3.909774436090225347e+00,8.387770565523421595e+00
4.010025062656641381e+00,8.309108705603289735e+00
4.110275689223056972e+00,8.284999554388965848e+00
4.210526315789473450e+00,8.317975599111125717e+00
4.310776942355889929e+00,8.407503336036670660e+00
4.411027568922305520e+00,8.549962576320668362e+00
4.511278195488721110e+00,8.738766620054002843e+00
4.611528822055137589e+00,8.964803329031875379e+00
4.711779448621554067e+00,9.217381886887075382e+00
4.812030075187969658e+00,9.485714808712637947e+00
4.912280701754385248e+00,9.760639397388978011e+00
5.012531328320801727e+00,1.003592360510232417e+01
5.112781954887218205e+00,1.030839599860366285e+01
5.213032581453633796e+00,1.057654168091561075e+01
5.313283208020049386e+00,1.083803826764123279e+01
5.413533834586465865e+00,1.108745005890255975e+01
5.513784461152882344e+00,1.131532800698806085e+01
5.614035087719297934e+00,1.150911779375044475e+01
5.714285714285713524e+00,1.165516969773975120e+01
5.814536340852130003e+00,1.174071982338937303e+01
5.914786967418546482e+00,1.175525312213236795e+01
6.015037593984962072e+00,1.169143282774614434e+01
6.115288220551377663e+00,1.154597707774761517e+01
6.215538847117794141e+00,1.132047011933840608e+01
6.315789473684210620e+00,1.102166796552025474e+01
6.416040100250626210e+00,1.066088182497695414e+01
6.516290726817041801e+00,1.025248973736814051e+01
6.616541353383458279e+00,9.812099400976146413e+00
6.716791979949874758e+00,9.354934949987262272e+00
6.817042606516290348e+00,8.894726718937258525e+00
6.917293233082705939e+00,8.443083423654440978e+00
7.017543859649122417e+00,8.009213267509990075e+00
7.117794486215538896e+00,7.599883344861738443e+00
7.218045112781954487e+00,7.219556224276605150e+00
7.318295739348370077e+00,6.870660255524537519e+00
7.418546365914786556e+00,6.553947396563014394e+00
7.518796992481203034e+00,6.268886350562073773e+00
7.619047619047618625e+00,6.014042965821253972e+00
7.719298245614034215e+00,5.787413555037372426e+00
7.819548872180450694e+00,5.586693569316999231e+00
7.919799498746867172e+00,5.409478601931622777e+00
8.020050125313282763e+00,5.253403988198638075e+00
8.120300751879698353e+00,5.116233967458581056e+00
8.220551378446113944e+00,4.995912386150532569e+00
8.320802005012531311e+00,4.890585889493316074e+00
8.421052631578946901e+00,4.798608607646914770e+00
8.521303258145362491e+00,4.718535148342100527e+00
8.621553884711779858e+00,4.649106886285477636e+00
8.721804511278195449e+00,4.589234915002386117e+00
8.822055137844611039e+00,4.537981864673415799e+00
8.922305764411026630e+00,4.494543937287868829e+00
9.022556390977442220e+00,4.458233922753092493e+00
9.122807017543859587e+00,4.428465569387370238e+00
9.223057644110275177e+00,4.404739490044111250e+00
9.323308270676690768e+00,4.386630426236189706e+00
9.423558897243108134e+00,4.373775910241759490e+00
9.523809523809523725e+00,4.365866084451901941e+00
9.624060150375939315e+00,4.362634546494549070e+00
9.724310776942354906e+00,4.363850028042506324e+00
9.824561403508770496e+00,4.369308784589546413e+00
9.924812030075187863e+00,4.378827581183980300e+00
1.002506265664160345e+01,4.392237197524856640e+00
1.012531328320801904e+01,4.409376422680727714e+00
1.022556390977443641e+01,4.430086556090170546e+00
1.032581453634085200e+01,4.454206486473475834e+00
1.042606516290726759e+01,4.481568477068093692e+00
1.052631578947368318e+01,4.511994842802672601e+00
1.062656641604009877e+01,4.545295758233149463e+00
1.072681704260651614e+01,4.581268477254468507e+00
1.082706766917293173e+01,4.619698268422331999e+00
1.092731829573934732e+01,4.660361362519156003e+00
1.102756892230576469e+01,4.703030160300382789e+00
1.112781954887218028e+01,4.747480847228078282e+00
1.122807017543859587e+01,4.793503400325698216e+00
1.132832080200501146e+01,4.840913747613870832e+00
1.142857142857142705e+01,4.889567559148779274e+00
1.152882205513784442e+01,4.939374827896148012e+00
1.162907268170426001e+01,4.990314067685191368e+00
1.172932330827067560e+01,5.042444659902019843e+00
1.182957393483709296e+01,5.095915656857526344e+00
1.192982456140350855e+01,5.150969268867968687e+00
1.203007518796992414e+01,5.207937346978863680e+00
1.213032581453633973e+01,5.267229472557914960e+00
1.223057644110275533e+01,5.329311779354201306e+00
1.233082706766917269e+01,5.394676351145464288e+00
1.243107769423558828e+01,5.463801924114810582e+00
1.253132832080200387e+01,5.537107612287932135e+00
1.263157894736842124e+01,5.614902377970883762e+00
1.273182957393483683e+01,5.697333883889711181e+00
1.283208020050125242e+01,5.784341007835173798e+00
1.293233082706766801e+01,5.875614704616723749e+00
1.303258145363408360e+01,5.970571654907745440e+00
1.313283208020050097e+01,6.068344463659236077e+00
1.323308270676691656e+01,6.167790929750253781e+00
1.333333333333333215e+01,6.267523201308701886e+00
1.343358395989974952e+01,6.365955767399253062e+00
1.353383458646616511e+01,6.461369398955442378e+00
1.363408521303258070e+01,6.551986659657711876e+00
1.373433583959899629e+01,6.636053661495737721e+00
1.383458646616541188e+01,6.711922378468037742e+00
1.393483709273182924e+01,6.778128029305731772e+00
1.403508771929824483e+01,6.833456641372480433e+00
1.413533834586466043e+01,6.876998771749928352e+00
1.423558897243107779e+01,6.908186386390035238e+00
1.433583959899749338e+01,6.926811046438638542e+00
1.443609022556390897e+01,6.933022820234605810e+00
1.453634085213032456e+01,6.927310705599465379e+00
1.463659147869674015e+01,6.910466723312852722e+00
1.473684210526315752e+01,6.883537076915318131e+00
1.483709273182957311e+01,6.847764687209701329e+00
1.493734335839598870e+01,6.804527856297130306e+00
1.503759398496240607e+01,6.755279734047287654e+00
1.513784461152882166e+01,6.701492691390432022e+00
1.523809523809523725e+01,6.644610778747066959e+00
1.533834586466165284e+01,6.586012339331981380e+00
1.543859649122806843e+01,6.526983733826268619e+00
1.553884711779448580e+01,6.468704135164307090e+00
1.563909774436090139e+01,6.412240608949391074e+00
1.573934837092731698e+01,6.358552160522743968e+00
1.583959899749373434e+01,6.308501162707143450e+00
1.593984962406014994e+01,6.262870500381874983e+00
1.604010025062656553e+01,6.222384861051279970e+00
1.614035087719298289e+01,6.187734777961304999e+00
1.624060150375939671e+01,6.159602275501860014e+00
1.634085213032581407e+01,6.138687215285385079e+00
1.644110275689222789e+01,6.125733670543517029e+00
1.654135338345864525e+01,6.121555834049533296e+00
1.664160401002506262e+01,6.127063067267902952e+00
1.674185463659147644e+01,6.143283700468350261e+00
1.684210526315789380e+01,6.171387070135412323e+00
1.694235588972431117e+01,6.212703003610680064e+00
1.704260651629072498e+01,6.268737505346891226e+00
1.714285714285714235e+01,6.341182746481470289e+00
1.724310776942355972e+01,6.431918616032757718e+00
1.734335839598997353e+01,6.543002115549044539e+00
1.744360902255639090e+01,6.676639918160078402e+00
1.754385964912280471e+01,6.835138752738875390e+00
1.764411027568922208e+01,7.020828660730439985e+00
1.774436090225563945e+01,7.235953744422232603e+00
1.784461152882205326e+01,7.482532793093836787e+00
1.794486215538847063e+01,7.762189626787336039e+00
1.804511278195488444e+01,8.075963164139546180e+00
1.814536340852130181e+01,8.424100870076738801e+00
1.824561403508771917e+01,8.805826072428716955e+00
1.834586466165413299e+01,9.219036336592836278e+00
1.844611528822055035e+01,9.659847702250276669e+00
1.854636591478696772e+01,1.012189896962734181e+01
1.864661654135338154e+01,1.059545139865423025e+01
1.874686716791979890e+01,1.106663510776841797e+01
1.884711779448621627e+01,1.151757997286767043e+01
1.894736842105263008e+01,1.192818534466518088e+01
1.904761904761904745e+01,1.227942125806224638e+01
1.914786967418546126e+01,1.255659259311525844e+01
1.924812030075187863e+01,1.275031897711545525e+01
1.934837092731829600e+01,1.285441014690623618e+01
1.944862155388470981e+01,1.286277380997146658e+01
1.954887218045112718e+01,1.276907941175785233e+01
1.964912280701754099e+01,1.257034303517936813e+01
1.974937343358395836e+01,1.227116482556169252e+01
1.984962406015037573e+01,1.188522697503436376e+01
1.994987468671678954e+01,1.143436826116658978e+01
2.005012531328320691e+01,1.094662095814143044e+01
2.015037593984962427e+01,1.045307686052757035e+01
2.025062656641603809e+01,9.983518030398677467e+00
2.035087719298245545e+01,9.562131422908052514e+00
2.045112781954887282e+01,9.204878385272326824e+00
2.055137844611528664e+01,8.919037996473711871e+00
2.065162907268170400e+01,8.704388035284129188e+00
2.075187969924811782e+01,8.555134919593209375e+00
2.085213032581453518e+01,8.461901428231053401e+00
2.095238095238095255e+01,8.413431055639216893e+00
2.105263157894736636e+01,8.397934737218655243e+00
2.115288220551378373e+01,8.404129926128709016e+00
2.125313283208019755e+01,8.422037580768924059e+00
2.135338345864661491e+01,8.443563536358778876e+00
2.145363408521303228e+01,8.462850080253749852e+00
2.155388471177944609e+01,8.476369977894297136e+00
2.165413533834586346e+01,8.482756971708798943e+00
2.175438596491228083e+01,8.482409507594528719e+00
2.185463659147869464e+01,8.476944674343432240e+00
2.195488721804511201e+01,8.468599631853857446e+00
2.205513784461152937e+01,8.459672249805285205e+00
2.215538847117794319e+01,8.452068594799506229e+00
2.225563909774436055e+01,8.446994306410324782e+00
2.235588972431077437e+01,8.444797400956950639e+00
2.245614035087719174e+01,8.444950753848722513e+00
2.255639097744360910e+01,8.446146222904413747e+00
2.265664160401002292e+01,8.446467288668261020e+00
2.275689223057644028e+01,8.443605299955974530e+00
2.285714285714285410e+01,8.435087495184916406e+00
2.295739348370927146e+01,8.418491483770413453e+00
2.305764411027568883e+01,8.391628293754267887e+00
2.315789473684210265e+01,8.352683827371668812e+00
2.325814536340852001e+01,8.300314897457077734e+00
2.335839598997493738e+01,8.233700579574612988e+00
2.345864661654135119e+01,8.152552856201818798e+00
2.355889724310776856e+01,8.057092498714675699e+00
2.365914786967418593e+01,7.947997371216153795e+00
2.375939849624059974e+01,7.826330988195751459e+00
2.385964912280701711e+01,7.693459286499443550e+00
2.395989974937343092e+01,7.550963149741566127e+00
2.406015037593984829e+01,7.400553262162358870e+00
2.416040100250626566e+01,7.243992463719561847e+00
2.426065162907267947e+01,7.083029144457573700e+00
2.436090225563909684e+01,6.919343544790320877e+00
2.446115288220551065e+01,6.754507285710522169e+00
2.456140350877192802e+01,6.589955553283271428e+00
2.466165413533834538e+01,6.426970279300290301e+00
2.476190476190475920e+01,6.266672610311402991e+00
2.486215538847117656e+01,6.110022710684043901e+00
2.496240601503759393e+01,5.957825086722392527e+00
2.506265664160400775e+01,5.810737850780943958e+00
2.516290726817042511e+01,5.669284597040922691e+00
2.526315789473684248e+01,5.533867858211287682e+00
2.536340852130325629e+01,5.404783276153271032e+00
2.546365914786967366e+01,5.282233896907069237e+00
2.556390977443608747e+01,5.166344127696543609e+00
2.566416040100250484e+01,5.057173052812484748e+00
2.576441102756892221e+01,4.954726905673319415e+00
2.586466165413533602e+01,4.858970581684975976e+00
2.596491228070175339e+01,4.769838142848604967e+00
2.606516290726816720e+01,4.687242324650506831e+00
2.616541353383458457e+01,4.611083078156036130e+00
2.626566416040100194e+01,4.541255214228385739e+00
2.636591478696741575e+01,4.477655221564418753e+00
2.646616541353383312e+01,4.420187344358983417e+00
2.656641604010025048e+01,4.368769016649327597e+00
2.666666666666666430e+01,4.323335727610439605e+00
2.676691729323308166e+01,4.283845378425946926e+00
2.686716791979949903e+01,4.250282211477786731e+00
2.696741854636591285e+01,4.222660346776501150e+00
2.706766917293233021e+01,4.201026958160058555e+00
2.716791979949874403e+01,4.185465077552650293e+00
2.726817042606516139e+01,4.176096003487697494e+00
2.736842105263157876e+01,4.173081247468434896e+00
2.746867167919799257e+01,4.176623908859614431e+00
2.756892230576440994e+01,4.186969317746822128e+00
2.766917293233082376e+01,4.204404726290055905e+00
2.776942355889724112e+01,4.229257763479569832e+00
2.786967418546365849e+01,4.261893300146563313e+00
2.796992481203007230e+01,4.302708308543408577e+00
2.807017543859648967e+01,4.352124257807814089e+00
2.817042606516290704e+01,4.410576585603812383e+00
2.827067669172932085e+01,4.478500860340569822e+00
2.837092731829573822e+01,4.556315442903469126e+00
2.847117794486215558e+01,4.644400827741820059e+00
2.857142857142856940e+01,4.743076449722929411e+00
2.867167919799498677e+01,4.852576630192356966e+00
2.877192982456140058e+01,4.973028499843318961e+00
2.887218045112781795e+01,5.104436071794101082e+00
2.897243107769423531e+01,5.246675864761887631e+00
2.907268170426064913e+01,5.399510059344831525e+00
2.917293233082706649e+01,5.562622280820897380e+00
2.927318295739348031e+01,5.735677597536342986e+00
2.937343358395989767e+01,5.918401930663509170e+00
2.947368421052631504e+01,6.110663796398634773e+00
2.957393483709272886e+01,6.312530028047172337e+00
2.967418546365914622e+01,6.524252743360842821e+00
2.977443609022556359e+01,6.746141992847290325e+00
2.987468671679197740e+01,6.978289156374145819e+00
2.997493734335839477e+01,7.220141366441382047e+00
3.007518796992481214e+01,7.469982794709240537e+00
3.017543859649122595e+01,7.724446112398571707e+00
3.027568922305764332e+01,7.978218678539766628e+00
3.037593984962405713e+01,8.224103076340863794e+00
3.047619047619047450e+01,8.453511385304837589e+00
3.057644110275689187e+01,8.657344408604396691e+00
3.067669172932330568e+01,8.827086500052200080e+00
3.077694235588972305e+01,8.955895026539163695e+00
3.087719298245613686e+01,9.039483031722664208e+00
3.097744360902255423e+01,9.076649410695871723e+00
3.107769423558897159e+01,9.069362978879643933e+00
3.117794486215538541e+01,9.022368756729141737e+00
3.127819548872180277e+01,8.942377287178857159e+00
3.137844611528822014e+01,8.837007217394798886e+00
3.147869674185463396e+01,8.713722720204550853e+00
3.157894736842105132e+01,8.578992876816473157e+00
3.167919799498746869e+01,8.437805138591750520e+00
3.177944862155388250e+01,8.293542178238762830e+00
3.187969924812029987e+01,8.148141200920857585e+00
3.197994987468671368e+01,8.002426394062249315e+00
3.208020050125313105e+01,7.856524588779549845e+00
3.218045112781954487e+01,7.710301333370141563e+00
3.228070175438596578e+01,7.563767973293777480e+00
3.238095238095237960e+01,7.417413464815425961e+00
3.248120300751879341e+01,7.272421669489316010e+00
3.258145363408521433e+01,7.130754206854724941e+00
3.268170426065162815e+01,6.995106238212117411e+00
3.278195488721804196e+01,6.868767826435286494e+00
3.288220551378445577e+01,6.755437542829376696e+00
3.298245614035087669e+01,6.659033986626916146e+00
3.308270676691729051e+01,6.583539077517494675e+00
3.318295739348370432e+01,6.532888083911998933e+00
3.328320802005012524e+01,6.510903449121701492e+00
3.338345864661653906e+01,6.521253118896886747e+00
3.348370927318295287e+01,6.567404014559884651e+00
3.358395989974937379e+01,6.652536273780079057e+00
3.368421052631578760e+01,6.779384502980189353e+00
3.378446115288220142e+01,6.949980281446102914e+00
3.388471177944862234e+01,7.165298848886533456e+00
3.398496240601503615e+01,7.424854158687486105e+00
3.408521303258144997e+01,7.726361194258419829e+00
3.418546365914787089e+01,8.065658197571135446e+00
3.428571428571428470e+01,8.437111515052681199e+00
3.438596491228069851e+01,8.834615301830913481e+00
3.448621553884711943e+01,9.252952548758527129e+00
3.458646616541353325e+01,9.688742562776486267e+00
3.468671679197994706e+01,1.013979776048007686e+01
3.478696741854636088e+01,1.060212463454489651e+01
3.488721804511278179e+01,1.106548197969055103e+01
3.498746867167919561e+01,1.151047082835168922e+01
3.508771929824560942e+01,1.191023212465965386e+01
3.518796992481203034e+01,1.223642561663758421e+01
3.528822055137844416e+01,1.246513945621884467e+01
3.538847117794485797e+01,1.257889113756409927e+01
3.548872180451127889e+01,1.256554268173827182e+01
3.558897243107769270e+01,1.241803149484919189e+01
3.568922305764410652e+01,1.213716952174835839e+01
3.578947368421052744e+01,1.173508099857603426e+01
3.588972431077694125e+01,1.123474037162732486e+01
3.598997493734335507e+01,1.066520828363671036e+01
3.609022556390976888e+01,1.005652104762466337e+01
3.619047619047618980e+01,9.436771902438573889e+00
3.629072681704260361e+01,8.830694466306059809e+00
3.639097744360901743e+01,8.258525396106046301e+00
3.649122807017543835e+01,7.734999309834435621e+00
3.659147869674185216e+01,7.268941203369779558e+00
3.669172932330826598e+01,6.863714382499672695e+00
3.679197994987468689e+01,6.518346145929106328e+00
3.689223057644110071e+01,6.228925754557211647e+00
3.699248120300751452e+01,5.989909960735364969e+00
3.709273182957393544e+01,5.795137535332612444e+00
3.719298245614034926e+01,5.638508652022814260e+00
3.729323308270676307e+01,5.514375934976177618e+00
3.739348370927318399e+01,5.417724957607001457e+00
3.749373433583959780e+01,5.344218479029332336e+00
3.759398496240601162e+01,5.290163341862701429e+00
3.769423558897243254e+01,5.252437816639686119e+00
3.779448621553884635e+01,5.228405878396110928e+00
3.789473684210526017e+01,5.215830831764310282e+00
3.799498746867167398e+01,5.212796550728952205e+00
3.809523809523809490e+01,5.217639183559430904e+00
3.819548872180450871e+01,5.228890484384072224e+00
3.829573934837092253e+01,5.245232664771577014e+00
3.839598997493734345e+01,5.265464370260831473e+00
3.849624060150375726e+01,5.288476910712960333e+00
3.859649122807017108e+01,5.313240076794516042e+00
3.869674185463659200e+01,5.338796612562253685e+00
3.879699248120300581e+01,5.364264346835335040e+00
3.889724310776941962e+01,5.388844727953202352e+00
3.899749373433584054e+01,5.411836308456038580e+00
3.909774436090225436e+01,5.432651308909733245e+00
3.919799498746866817e+01,5.450833260531025459e+00
3.929824561403508199e+01,5.466073529989205149e+00
3.939849624060150290e+01,5.478224585619996034e+00
3.949874686716791672e+01,5.487308070573315710e+00
3.959899749373433053e+01,5.493516168463378868e+00
3.969924812030075145e+01,5.497205309580006194e+00
3.979949874686716527e+01,5.498881921345692092e+00
3.989974937343357908e+01,5.499180571162051834e+00
